f1,f2,f3,f4,f5,f6,f7,f8,f9,f10,f11,f12,f13,f14,f15,f16,f17,f18,f19,f20,f21,f22,f23,f24,f25,f26,f27,f28,f29,f30,f31,f32,label
0.9950225,0.0,0.0,0.0,0.0,0.0,5.7602997,12.304349,0.0,16.777248,0.0,0.0,0.0,0.0,13.106743,5.3625784,3.7478852,0.0,0.09714134,0.0,0.0,1.7040241,0.0,1.8930066,0.0,0.0,16.564705,9.59696,0.0,16.145544,0.0,0.0,PE
0.0,10.587653,0.0,0.0,12.915337,0.0,1.8662797,2.1224248,0.0,8.012766,13.002633,0.0,0.0,0.0,14.425876,0.0,0.0,16.998323,10.948803,5.050057,2.147185,0.0,0.0,0.0,17.788227,0.0,5.429114,0.0,15.312438,0.0,11.523521,6.568032,PE
0.0,0.0,0.0,0.0,0.0,0.0,3.7939909,13.281296,0.0,13.117914,0.0,0.0,0.0,0.0,11.955415,4.4757495,5.5016313,0.0,0.0,0.0,0.13433988,0.0,0.0,1.1040916,0.0,0.0,13.166874,9.101781,0.0,8.683868,0.0,0.0,PE
0.0,9.57978,0.0,0.0,10.114507,0.0,0.0,18.355597,3.9261773,10.471593,0.0,0.0,0.0,0.0,10.501624,0.0,12.664112,3.9698439,9.700546,0.0,7.5352097,0.0,0.0,0.0,0.0,0.0,7.3168297,10.643897,6.456545,0.0,0.0,0.0,PE
0.0,0.0,0.0,0.0,0.0,0.0,3.7647684,13.824334,0.0,13.281236,0.0,0.0,0.0,0.0,12.185972,4.6726537,5.6581035,0.0,0.0,0.0,0.24953388,0.0,0.0,0.983017,0.0,0.0,13.256876,9.319449,0.0,8.303463,0.0,0.0,PE
0.0,4.3351464,0.0,1.3252838,2.727109,0.0,0.0,0.0,1.7112302,3.8652794,1.2211072,0.0,0.0,0.0,0.0,0.0,2.05131,2.0588903,7.8329906,0.8928891,0.0,0.0,0.0,0.0,6.412883,0.0,0.0,1.0486563,12.76347,0.0,19.924852,1.3312129,PE
0.0,10.931183,0.0,0.0,15.602244,0.0,1.9354863,4.2008758,0.5791769,9.722922,14.71354,0.0,0.0,0.0,17.276598,0.0,0.0,17.501528,12.55804,6.0064526,4.6878324,0.0,0.0,0.0,19.395853,0.0,6.206395,0.0,15.522183,0.0,9.001242,6.7368174,PE
0.0,10.251479,0.0,0.0,15.650039,0.0,2.1567168,5.376581,1.1330914,9.989596,14.247322,0.0,0.0,0.0,17.193764,0.0,0.0,16.480213,12.249836,5.592691,5.2909,0.0,0.0,0.0,18.382671,0.0,5.9963613,0.0,14.679517,0.0,7.216963,6.0150847,PE
0.0,11.398656,0.0,0.0,11.991126,0.0,0.0,20.452267,4.8332725,11.562742,0.42680368,0.0,0.0,0.0,11.353266,0.0,13.79478,4.913086,12.457567,0.0,8.884216,0.0,0.0,0.0,0.0,0.0,7.646172,11.1671095,8.0517,0.0,0.0,0.0,PE
0.0,5.82827,0.0,0.95015997,3.2487314,0.0,0.0,0.0,0.9653386,4.063888,1.6560936,0.0,0.0,0.0,0.0,0.0,1.5172582,3.6129382,8.7474785,1.0218713,0.0,0.0,0.0,0.0,7.901094,0.0,0.0,0.0,14.184781,0.0,21.035955,2.1809502,PE
9.848235,0.0,0.0,0.0,0.0,0.0,10.437009,0.0,0.0,16.110569,0.0,0.0,0.0,0.0,3.2980142,0.0,0.0,0.0,12.007931,0.0,0.27569255,5.71885,0.0,1.465403,8.640928,16.826147,18.163845,4.7871003,0.0,36.71695,0.0,0.0,PE
0.0,5.782389,0.0,0.88060695,3.2764776,0.0,0.0,0.0,0.9805024,4.0212617,1.7219124,0.0,0.0,0.0,0.0,0.0,1.5409038,3.647008,8.7344,1.0286231,0.0,0.0,0.0,0.0,7.778353,0.0,0.0,0.0,13.95144,0.0,20.734226,2.2059236,PE
0.0,10.736345,0.0,0.0,15.7447195,0.0,2.0832,4.5732822,0.7731834,9.881597,14.700062,0.0,0.0,0.0,17.444185,0.0,0.0,17.334759,12.479591,5.8702393,4.925142,0.0,0.0,0.0,19.248407,0.0,6.210476,0.0,15.32611,0.0,8.41054,6.5244465,PE
1.4344344,0.0,0.0,0.0,0.0,0.0,5.791467,10.424929,0.0,16.095871,0.0,0.0,0.0,0.0,12.045516,4.745351,2.797673,0.0,0.37797722,0.0,0.0,2.444115,0.0,2.0889213,0.0,1.1431583,16.10898,8.637118,0.0,17.214712,0.0,0.0,PE
0.0,9.778204,0.0,0.0,10.271342,0.0,0.0,18.41995,4.012207,10.529716,0.0,0.0,0.0,0.0,10.462256,0.0,12.732334,4.100111,10.0478325,0.0,7.6540294,0.0,0.0,0.0,0.0,0.0,7.2826104,10.639768,6.6305943,0.0,0.0,0.0,PE
0.0,10.1319065,0.0,0.0,15.586191,0.0,2.1573308,5.563977,1.2139404,9.999799,14.1132,0.0,0.0,0.0,17.072046,0.0,0.0,16.232145,12.169866,5.516188,5.3696175,0.0,0.0,0.0,18.125813,0.0,5.92533,0.0,14.505532,0.0,6.9456253,5.879148,PE
1.426321,0.0,0.0,0.0,0.0,0.0,5.248325,8.565116,0.0,14.060011,0.0,0.0,0.0,0.0,10.330447,3.8869996,2.2413545,0.0,0.62546676,0.0,0.0,2.3204236,0.0,1.9296107,0.218215,1.4050488,14.3712225,7.4990582,0.0,16.06788,0.0,0.0,PE
0.0,0.0,0.0,0.0,0.0,0.0,3.6396732,13.325994,0.0,12.804219,0.0,0.0,0.0,0.0,11.814635,4.443887,5.5578995,0.0,0.0,0.0,0.3165389,0.0,0.0,0.97503227,0.0,0.0,12.858417,9.046297,0.0,8.0634,0.0,0.0,PE
0.0,12.447723,0.0,0.0,12.745378,0.0,0.0,20.677158,5.2313724,11.802707,0.8830435,0.0,0.0,0.0,11.044672,0.0,14.26019,5.6749415,14.208349,0.14297256,9.374176,0.0,0.0,0.0,0.0,0.0,7.449108,11.293123,8.93636,0.0,0.0,0.0,PE
0.0,12.183562,0.0,0.0,12.66401,0.0,0.0,20.916056,5.195786,11.849763,0.8042335,0.0,0.0,0.0,11.362791,0.0,14.172074,5.422831,13.722876,0.0,9.365147,0.0,0.0,0.0,0.0,0.0,7.6269426,11.315048,8.73002,0.0,0.0,0.0,PE
0.0,3.9386613,0.0,1.5185449,2.0818229,0.0,0.0,0.0,1.0525419,3.391946,1.0317495,0.0,0.0,0.0,0.0,0.0,1.3472506,1.8832374,6.473258,0.673548,0.0,0.0,0.023922473,0.0,6.4999886,0.0,0.0,0.24090283,11.813435,0.54542106,18.485994,0.8679716,PE
12.367146,0.0,0.0,0.0,0.0,0.0,12.967818,0.0,0.0,19.667967,0.0,0.0,0.0,0.0,3.6659305,0.0,0.0,0.0,14.806325,0.0,0.4090111,6.7893085,0.0,1.628196,10.921544,21.024979,21.85517,5.6232915,0.0,45.00831,0.0,0.0,PE
12.13847,0.0,0.0,0.0,0.0,0.0,12.467154,0.0,0.0,18.758781,0.0,0.0,0.0,0.0,3.2858987,0.0,0.0,0.0,14.595065,0.0,0.6335997,6.606723,0.0,1.507272,10.745975,20.475378,21.005423,5.406331,0.0,43.56702,0.0,0.0,PE
0.0,4.215757,0.0,1.3860105,2.6431222,0.0,0.0,0.0,1.7154474,3.842324,1.1907915,0.0,0.0,0.0,0.0,0.0,1.9805833,1.9627241,7.6624184,0.8351625,0.0,0.0,0.0,0.0,6.3968086,0.0,0.0,1.02514,12.662578,0.0,19.8535,1.2105951,PE
12.427673,0.0,0.0,0.0,0.0,0.0,13.035433,0.0,0.0,19.7444,0.0,0.0,0.0,0.0,3.6883,0.0,0.0,0.0,14.838216,0.0,0.40354192,6.8250422,0.0,1.6171105,10.974361,21.087814,21.929195,5.675228,0.0,45.180935,0.0,0.0,PE
1.2431772,0.0,0.0,0.0,0.0,0.0,5.7213902,11.467416,0.0,16.400864,0.0,0.0,0.0,0.0,12.590006,5.1492205,3.3784242,0.0,0.17504993,0.0,0.0,2.0369954,0.0,1.9641235,0.0,0.38581687,16.241238,9.197234,0.0,16.494778,0.0,0.0,PE
11.834713,0.0,0.0,0.0,0.0,0.0,12.315245,0.0,0.0,18.675953,0.0,0.0,0.0,0.0,3.3331354,0.0,0.0,0.0,14.365235,0.0,0.52460504,6.552996,0.0,1.6009157,10.512704,20.178892,20.85836,5.3240027,0.0,43.02427,0.0,0.0,PE
0.0,0.0,0.0,0.0,0.0,0.0,3.9484167,14.433003,0.0,13.883969,0.0,0.0,0.0,0.0,12.647382,4.97565,5.7559404,0.0,0.0,0.0,0.115321085,0.0,0.0,1.0012836,0.0,0.0,13.759901,9.622783,0.0,8.612011,0.0,0.0,PE
9.182899,0.0,0.0,0.0,0.0,0.0,9.29414,0.0,0.0,14.045345,0.0,0.0,0.0,0.0,2.5343702,0.0,0.0,0.0,11.242229,0.0,0.73724365,5.277073,0.0,1.2033448,8.0156765,15.239867,16.26132,4.445444,0.0,33.106686,0.0,0.0,PE
0.0,5.7177496,0.0,0.0,6.347533,0.0,0.0,15.445363,1.7800121,8.710333,0.0,0.072286926,0.0,0.0,10.191512,0.0,9.881413,1.3117207,4.2044272,0.0,4.5924325,0.0,0.0,0.0,0.0,0.0,7.6027975,10.075255,2.2406652,0.0,0.0,0.0,PE
0.0,4.0175214,0.0,1.4205922,1.8235399,0.0,0.0,0.0,0.6854687,3.3832593,1.1002533,0.0,0.0,0.0,0.0,0.0,0.92249894,2.0005054,6.107604,0.5704164,0.0,0.0,0.0,0.0,6.942907,0.0,0.0,0.0,11.914408,0.7789941,18.373104,0.8896488,PE
0.0,4.7419724,0.0,0.0,5.2894483,0.0,0.0,15.731108,1.0631365,9.537378,0.0,0.07924869,0.0,0.0,10.779672,0.12567692,9.450306,0.60542005,3.6562076,0.0,4.244286,0.0,0.0,0.0,0.0,0.0,8.549263,10.365485,1.466457,0.0,0.0,0.0,PE
12.198886,0.0,0.0,0.0,0.0,0.0,12.523955,0.0,0.0,18.82755,0.0,0.0,0.0,0.0,3.2363286,0.0,0.0,0.0,14.66849,0.0,0.65071213,6.6357546,0.0,1.5257194,10.8406105,20.587568,21.053968,5.405573,0.0,43.713642,0.0,0.0,PE
0.0,6.4377127,0.0,0.0,7.0039034,0.0,0.0,15.736858,2.205854,8.729522,0.0,0.0,0.0,0.0,9.987228,0.0,10.370429,1.8933892,4.8960943,0.0,4.979981,0.0,0.0,0.0,0.0,0.0,7.3809333,10.1143265,2.968022,0.0,0.0,0.0,PE
7.8154397,0.0,0.0,0.0,0.0,0.0,9.372108,0.0,0.0,15.269721,0.0,0.0,0.0,0.0,4.1750946,0.0,0.0,0.0,9.767825,0.0,0.0,5.0347886,0.0,1.6872892,6.6329727,14.05934,17.02839,4.687654,0.0,32.697765,0.0,0.0,PE
4.83406,0.0,0.0,0.0,0.0,0.0,8.242454,4.061505,0.0,16.272266,0.0,0.0,0.0,0.0,8.343434,1.7042506,1.0602607,0.0,4.917696,0.0,0.0,5.0700026,0.0,2.2574131,3.4159546,8.679875,17.28195,7.458169,0.0,26.556967,0.0,0.0,PE
6.2896194,0.0,0.0,0.0,0.0,0.0,6.937257,0.0,0.0,11.079423,0.0,0.0,0.0,0.0,2.7265298,0.0,0.0,0.0,7.9665513,0.0,0.2569946,4.006837,0.0,1.1901946,5.273065,10.521393,13.095861,4.1021056,0.0,25.207155,0.0,0.0,PE1PP1
11.531826,0.0,0.0,0.0,0.0,0.0,11.959346,0.0,0.0,18.198116,0.0,0.0,0.0,0.0,3.2974248,0.0,0.0,0.0,13.994471,0.0,0.5169848,6.391172,0.0,1.5901058,10.212815,19.624676,20.357069,5.20665,0.0,41.929638,0.0,0.0,PE1PP1
0.0,4.2249217,0.0,1.5181122,2.2124507,0.0,0.0,0.0,1.0222261,3.4898975,1.0735804,0.0,0.0,0.0,0.0,0.0,1.3329009,2.0662072,6.7673044,0.7313022,0.0,0.0,0.017210051,0.0,6.7892833,0.0,0.0,0.16483055,12.306691,0.50935966,19.050016,1.0410523,PE1PP1
0.0,5.4040275,0.0,0.0,6.0024934,0.0,0.0,15.447761,1.5781753,8.869572,0.0,0.057681546,0.0,0.0,10.315812,0.0,9.770307,1.1110749,4.014944,0.0,4.456672,0.0,0.0,0.0,0.0,0.0,7.824524,10.208485,1.9803871,0.0,0.0,0.0,PE1PP1
0.0,4.399501,0.0,1.2041112,1.9176942,0.0,0.0,0.0,0.397937,3.438788,1.1623757,0.0,0.0,0.0,0.0,0.0,0.88611895,2.461608,6.343477,0.6206643,0.0,0.0,0.023956649,0.0,7.11397,0.0,0.0,0.0,11.93683,0.5754033,18.154127,1.2048625,PE1PP1
11.791557,0.0,0.0,0.0,0.0,0.0,12.586338,0.0,0.0,19.172749,0.0,0.0,0.0,0.0,3.8886971,0.0,0.0,0.0,14.048469,0.0,0.18135387,6.675989,0.0,1.6104202,10.354474,20.04851,21.348911,5.638604,0.0,43.492332,0.0,0.0,PE1PP1
0.0,11.109895,0.0,0.0,15.579334,0.0,1.8679935,3.9344845,0.43064538,9.653836,14.800936,0.0,0.0,0.0,17.256693,0.0,0.0,17.729872,12.645501,6.108551,4.535932,0.0,0.0,0.0,19.603123,0.0,6.24328,0.0,15.725407,0.0,9.446703,6.912696,PE1PP1
0.0,11.698263,0.0,0.0,12.130146,0.0,0.0,20.29081,4.903412,11.537947,0.54503596,0.0,0.0,0.0,11.081809,0.0,13.883895,5.1756053,12.996601,0.0,8.939627,0.0,0.0,0.0,0.0,0.0,7.483091,11.13069,8.293583,0.0,0.0,0.0,PE1PP1
10.912099,0.0,0.0,0.0,0.0,0.0,10.976498,0.0,0.0,16.643473,0.0,0.0,0.0,0.0,2.5030196,0.0,0.0,0.0,13.6297245,0.0,0.9368488,5.9527326,0.0,1.5272919,9.8282795,18.672209,18.786448,4.644614,0.0,39.199093,0.0,0.0,PE1PP1
0.0,5.9060273,0.0,0.0,6.533285,0.0,0.0,15.518077,1.8767815,8.666347,0.0,0.04842513,0.0,0.0,10.157936,0.0,10.074572,1.4332489,4.3062077,0.0,4.623328,0.0,0.0,0.0,0.0,0.0,7.536647,10.155912,2.3299677,0.0,0.0,0.0,PE1PP1
0.0,4.0518017,0.0,1.4227695,2.1222408,0.0,0.0,0.0,0.9904327,3.3603544,1.065071,0.0,0.0,0.0,0.0,0.0,1.4094523,1.9757344,6.5488253,0.74652153,0.0,0.0,0.0,0.0,6.4179606,0.0,0.0,0.21466577,11.681098,0.36169183,18.175316,1.0089612,PE1PP1
0.92892426,0.0,0.0,0.0,0.0,0.0,5.535547,11.752946,0.0,16.067795,0.0,0.0,0.0,0.0,12.60085,5.0933495,3.6211715,0.0,0.10234426,0.0,0.0,1.6187067,0.0,1.8073393,0.0,0.0,15.934737,9.248766,0.0,15.574774,0.0,0.0,PE1PP1
0.0,5.212217,0.0,0.0,5.797749,0.0,0.0,15.813788,1.3528184,9.213329,0.0,0.076914966,0.0,0.0,10.637355,0.0,9.656566,0.86407745,3.9061465,0.0,4.4434676,0.0,0.0,0.0,0.0,0.0,8.139845,10.390792,1.8017967,0.0,0.0,0.0,PE1PP1
0.7570651,0.0,0.0,0.0,0.0,0.0,5.4676294,12.386822,0.0,16.008345,0.0,0.0,0.0,0.0,12.551574,5.336831,3.646389,0.0,0.2968712,0.0,0.0,1.0075225,0.0,1.7866694,0.0,0.0,15.701905,9.084998,0.0,14.734954,0.0,0.0,PE1PP1
1.2643225,0.0,0.0,0.0,0.0,0.0,5.9766917,12.368413,0.0,17.294144,0.0,0.0,0.0,0.0,13.314867,5.5484886,3.5764492,0.0,0.12985153,0.0,0.0,2.0262096,0.0,2.0027814,0.0,0.29729545,17.00539,9.693956,0.0,16.92135,0.0,0.0,PE1PP1
0.0,12.240748,0.0,0.0,12.609679,0.0,0.0,20.664167,5.159565,11.7720585,0.79585016,0.0,0.0,0.0,11.135746,0.0,14.176469,5.515717,13.855324,0.0,9.293912,0.0,0.0,0.0,0.0,0.0,7.505258,11.28386,8.766561,0.0,0.0,0.0,PE1PP1
0.9331573,0.0,0.0,0.0,0.0,0.0,5.615558,12.002164,0.0,16.34992,0.0,0.0,0.0,0.0,12.815484,5.204431,3.6957288,0.0,0.09596303,0.0,0.0,1.6254821,0.0,1.8447803,0.0,0.0,16.184639,9.40127,0.0,15.762009,0.0,0.0,PE1PP1
0.0,0.0,0.0,0.0,0.0,0.0,3.717516,13.1374655,0.0,12.884336,0.0,0.0,0.0,0.0,11.77325,4.404328,5.4436665,0.0,0.0,0.0,0.18905891,0.0,0.0,1.0759909,0.0,0.0,12.947803,8.960496,0.0,8.457169,0.0,0.0,PE1PP1
0.0,6.5080304,0.0,0.0,6.8733287,0.0,0.0,17.275055,1.76071,9.396664,0.0,0.0,0.0,0.0,10.692151,0.0,10.53496,1.4404345,4.9442887,0.0,4.756571,0.0,0.0,0.0,0.0,0.0,7.8928943,10.510247,2.532906,0.0,0.0,0.0,PE1PP1
0.0,9.2939005,0.0,0.0,9.904591,0.0,0.0,18.250628,3.813447,10.37391,0.0,0.0,0.0,0.0,10.547257,0.0,12.511883,3.7854297,9.25443,0.0,7.3884115,0.0,0.0,0.0,0.0,0.0,7.3426466,10.571755,6.2227726,0.0,0.0,0.0,PE1PP1
0.0,4.574198,0.0,1.3851349,2.815136,0.0,0.0,0.0,1.6821712,3.9996207,1.2408243,0.0,0.0,0.0,0.0,0.0,1.9683973,2.1532028,8.069727,0.93296295,0.0,0.0,0.0,0.0,6.8036647,0.0,0.0,0.9029583,13.360041,0.0,20.608871,1.434692,PE1PP1
0.0,9.314867,0.0,0.0,9.959121,0.0,0.0,18.35473,3.8484256,10.423363,0.0,0.0,0.0,0.0,10.622799,0.0,12.509456,3.7612529,9.295275,0.0,7.45546,0.0,0.0,0.0,0.0,0.0,7.370877,10.557165,6.2528224,0.0,0.0,0.0,PE1PP1
0.0,10.68399,0.0,0.0,15.569666,0.0,2.2035255,4.15353,0.5783919,9.651885,14.739775,0.0,0.0,0.0,17.46649,0.0,0.0,17.547413,12.306158,5.888898,4.640883,0.0,0.0,0.0,19.426935,0.0,6.231631,0.0,15.327729,0.0,8.676544,6.6352057,PE1PP1
0.0,10.499155,0.0,0.0,12.985474,0.0,1.6003677,2.8879526,0.0,8.038805,12.812027,0.0,0.0,0.0,14.052945,0.0,0.0,16.126608,11.120551,5.288594,2.811435,0.0,0.0,0.0,16.982708,0.0,5.1832075,0.0,14.737762,0.0,10.613982,6.4347043,PE1PP1
7.114217,0.0,0.0,0.0,0.0,0.0,5.725981,0.0,0.0,8.351512,0.0,0.0,0.0,0.0,0.0,0.0,0.0,0.0,9.993582,0.0,1.5283681,3.7831764,0.0,0.29314533,6.985146,11.666412,10.753374,2.492115,0.0,24.066233,1.3496377,0.0,PE1PP1
11.70904,0.0,0.0,0.0,0.0,0.0,12.615514,0.0,0.0,19.267733,0.0,0.0,0.0,0.0,4.05593,0.0,0.0,0.0,13.9067545,0.0,0.06506595,6.6958456,0.0,1.6397576,10.263896,19.938946,21.4498,5.705971,0.0,43.479004,0.0,0.0,PE1PP1
0.0,4.404646,0.0,0.0,5.1137223,0.0,3.3819597,0.5134139,0.0,3.4990234,6.6372476,0.0,0.0,0.0,8.486476,0.0,0.0,9.164685,4.1399136,1.8291875,0.0,0.0,0.0,0.0,9.924969,0.83202016,2.8058577,0.0,7.310178,0.0,6.067867,2.3402467,PE1PP1
12.277069,0.0,0.0,0.0,0.0,0.0,12.75186,0.0,0.0,19.257206,0.0,0.0,0.0,0.0,3.5025086,0.0,0.0,0.0,14.709894,0.0,0.50608385,6.7229238,0.0,1.5642443,10.842617,20.775276,21.474483,5.5373306,0.0,44.357635,0.0,0.0,PE1PP1
0.97709435,0.0,0.0,0.0,0.0,0.0,5.8421164,12.801592,0.0,17.124474,0.0,0.0,0.0,0.0,13.401826,5.579023,3.8781428,0.0,0.11203714,0.0,0.0,1.5796314,0.0,1.8830171,0.0,0.0,16.83363,9.820838,0.0,16.15939,0.0,0.0,PE1PP1
0.0,6.962629,0.0,0.0,7.449605,0.0,0.0,15.616937,2.5572727,8.752604,0.0,0.0,0.0,0.0,9.586977,0.0,10.758535,2.5538812,5.636604,0.0,5.3558593,0.0,0.0,0.0,0.0,0.0,7.0750585,9.987364,3.8023846,0.0,0.0,0.0,PE1PP1
0.0,6.032145,0.0,0.0,6.660468,0.0,0.0,15.660658,1.9550263,8.714945,0.0,0.042120516,0.0,0.0,10.200256,0.0,10.194983,1.490662,4.410637,0.0,4.6986246,0.0,0.0,0.0,0.0,0.0,7.552878,10.219396,2.4208415,0.0,0.0,0.0,PE1PP1
0.0,11.005164,0.0,0.0,15.745753,0.0,1.8034271,4.6812778,0.74998826,9.914735,14.610772,0.0,0.0,0.0,17.17025,0.0,0.0,17.254684,12.74935,6.008542,4.9454756,0.0,0.0,0.0,19.125677,0.0,6.137765,0.0,15.511,0.0,8.74883,6.6464357,PE1PP1
0.0,4.5389647,0.0,1.270939,2.8273733,0.0,0.0,0.0,1.7032117,3.9309382,1.2515458,0.0,0.0,0.0,0.0,0.0,2.1025138,2.1967876,8.113384,0.9901635,0.0,0.0,0.0,0.0,6.5701675,0.0,0.0,0.97350407,13.084622,0.0,20.201982,1.4591817,PE1PP1
0.0,11.1381445,0.0,0.0,13.955051,0.0,1.8104331,2.5230372,0.0,8.559523,13.850699,0.0,0.0,0.0,15.335768,0.0,0.0,17.84907,11.6948595,5.4202123,2.7554495,0.0,0.0,0.0,18.688196,0.0,5.800911,0.0,15.943361,0.0,11.637407,6.9231853,PE1PP1
0.0,10.843647,0.0,0.0,15.85162,0.0,1.8313822,5.170551,0.9814946,10.089236,14.494554,0.0,0.0,0.0,17.183311,0.0,0.0,16.924109,12.746764,5.902723,5.2241273,0.0,0.0,0.0,18.816782,0.0,6.0815783,0.0,15.306904,0.0,8.162367,6.420465,PE1PP1
0.0,10.598673,0.0,0.0,15.357154,0.0,2.223575,3.79023,0.4523338,9.473139,14.685074,0.0,0.0,0.0,17.38042,0.0,0.0,17.552425,12.154025,5.8676786,4.440852,0.0,0.0,0.0,19.46466,0.0,6.2290654,0.0,15.265652,0.0,8.858042,6.652482,PE1PP1
0.0,4.7016363,0.0,1.3109729,2.8948936,0.0,0.0,0.0,1.6797316,4.004152,1.2734616,0.0,0.0,0.0,0.0,0.0,2.0561926,2.281648,8.238735,0.99490935,0.0,0.0,0.0,0.0,6.7982044,0.0,0.0,0.92143655,13.408319,0.0,20.614908,1.5590628,PE1PP2
0.0,3.780902,0.0,1.4608029,1.9766723,0.0,0.0,0.0,0.99562716,3.2461143,0.9972634,0.0,0.0,0.0,0.0,0.0,1.3707916,1.8408972,6.249104,0.66414624,0.0,0.0,0.010598446,0.0,6.211901,0.0,0.0,0.25673938,11.321025,0.50974476,17.81825,0.78717643,PE1PP2
0.0,9.904255,0.0,0.0,15.056823,0.0,2.2174163,5.05945,1.006478,9.5992365,13.910782,0.0,0.0,0.0,16.66289,0.0,0.0,16.029896,11.68387,5.3904495,4.9992776,0.0,0.0,0.0,17.879004,0.0,5.790323,0.0,14.227649,0.0,7.144394,5.8134503,PE1PP2
0.0,0.0,0.0,0.0,0.0,0.0,3.7425241,13.357987,0.0,13.039643,0.0,0.0,0.0,0.0,11.947297,4.4887824,5.517113,0.0,0.0,0.0,0.20544018,0.0,0.0,1.0456496,0.0,0.0,13.081472,9.103978,0.0,8.448265,0.0,0.0,PE1PP2
0.0,4.078384,0.0,1.4702007,2.1706133,0.0,0.0,0.0,1.0609862,3.4015427,1.073132,0.0,0.0,0.0,0.0,0.0,1.4035492,2.012905,6.6406136,0.7053692,0.0,0.0,0.0051124683,0.0,6.5062575,0.0,0.0,0.28779036,11.902246,0.44370943,18.592041,0.9894196,PE1PP2
0.0,12.090164,0.0,0.0,12.550438,0.0,0.0,20.645744,5.154768,11.708939,0.82545745,0.0,0.0,0.0,11.210524,0.0,14.035137,5.418693,13.662924,0.0,9.276383,0.0,0.0,0.0,0.0,0.0,7.52707,11.18813,8.675342,0.0,0.0,0.0,PE1PP2
0.0,8.993017,0.0,0.0,9.650703,0.0,0.0,18.019186,3.678069,10.211847,0.0,0.0,0.0,0.0,10.504293,0.0,12.323168,3.6360147,8.818776,0.0,7.193213,0.0,0.0,0.0,0.0,0.0,7.318595,10.457629,5.9810266,0.0,0.0,0.0,PE1PP2
9.407771,0.0,0.0,0.0,0.0,0.0,10.647533,0.0,0.0,16.6413,0.0,0.0,0.0,0.0,3.944897,0.0,0.0,0.0,11.452019,0.0,0.0,5.918654,0.0,1.6617632,8.19375,16.33536,18.821398,5.3190727,0.0,36.967533,0.0,0.0,PE1PP2
0.0,4.000647,0.0,1.3954062,2.187452,0.0,0.0,0.0,1.1174197,3.3663611,1.1015903,0.0,0.0,0.0,0.0,0.0,1.4576951,1.9941803,6.585177,0.6834001,0.0,0.0,0.0027623922,0.0,6.294978,0.0,0.0,0.40682352,11.618646,0.33496055,18.275969,0.98141223,PE1PP2
0.0,10.658318,0.0,0.0,13.298393,0.0,1.768895,2.4876466,0.0,8.210915,13.2532835,0.0,0.0,0.0,14.65435,0.0,0.0,16.923649,11.193134,5.22524,2.655638,0.0,0.0,0.0,17.821537,0.0,5.4974737,0.0,15.221673,0.0,11.100158,6.5666075,PE1PP2
8.298871,0.0,0.0,0.0,0.0,0.0,10.257078,0.0,0.0,16.713322,0.0,0.0,0.0,0.0,5.3945856,0.0062552937,0.0,0.0,9.595918,0.0,0.0,5.722777,0.0,1.6530036,6.7371697,14.458039,18.576706,5.7043924,0.0,34.386585,0.0,0.0,PE1PP2
0.0,4.0999885,0.0,1.5057437,2.1541975,0.0,0.0,0.0,1.0380433,3.4353216,1.0599177,0.0,0.0,0.0,0.0,0.0,1.3482192,1.9953514,6.634392,0.7060712,0.0,0.0,0.014519096,0.0,6.6289434,0.0,0.0,0.21097091,12.049088,0.50577873,18.75174,0.9669918,PE1PP2
0.0,10.767588,0.0,0.0,15.935222,0.0,1.8165134,5.539462,1.1580138,10.247693,14.414405,0.0,0.0,0.0,17.179571,0.0,0.0,16.661736,12.7547455,5.8242073,5.45486,0.0,0.0,0.0,18.597094,0.0,6.0470457,0.0,15.1771345,0.0,7.756652,6.2350245,PE1PP2
11.37922,0.0,0.0,0.0,0.0,0.0,12.806883,0.0,0.0,19.891773,0.0,0.0,0.0,0.0,4.8701663,0.0,0.0,0.0,13.326681,0.0,0.0,6.8480134,0.0,1.7241949,9.775718,19.563068,22.06334,6.0806303,0.0,43.620426,0.0,0.0,PE1PP2
0.0,4.0344563,0.0,1.4837041,2.1231005,0.0,0.0,0.0,1.0447237,3.3900323,1.0547962,0.0,0.0,0.0,0.0,0.0,1.3877038,1.968938,6.56245,0.69917977,0.0,0.0,0.002413297,0.0,6.490287,0.0,0.0,0.25927374,11.839287,0.46712714,18.504385,0.9413503,PE1PP2
0.0,9.052576,0.0,0.0,9.778006,0.0,0.0,18.290604,3.7590263,10.34882,0.0,0.0,0.0,0.0,10.683818,0.0,12.394443,3.5842857,8.882746,0.0,7.3411736,0.0,0.0,0.0,0.0,0.0,7.412886,10.515494,6.035534,0.0,0.0,0.0,PE1PP2
11.717706,0.0,0.0,0.0,0.0,0.0,12.810338,0.0,0.0,19.63201,0.0,0.0,0.0,0.0,4.347893,0.0,0.0,0.0,13.847724,0.0,0.0,6.7852216,0.0,1.678796,10.212056,20.001173,21.82536,5.8583555,0.0,43.943565,0.0,0.0,PE1PP2
0.0,5.7177496,0.0,0.0,6.347533,0.0,0.0,15.445363,1.7800121,8.710333,0.0,0.072286926,0.0,0.0,10.191512,0.0,9.881413,1.3117207,4.2044272,0.0,4.5924325,0.0,0.0,0.0,0.0,0.0,7.6027975,10.075255,2.2406652,0.0,0.0,0.0,PE1PP2
0.0,12.405912,0.0,0.0,12.771686,0.0,0.0,20.809816,5.251772,11.8490505,0.8843457,0.0,0.0,0.0,11.180416,0.0,14.26056,5.613523,14.114409,0.10462109,9.416843,0.0,0.0,0.0,0.0,0.0,7.524311,11.322814,8.910259,0.0,0.0,0.0,PE1PP2
9.580102,0.0,0.0,0.0,0.0,0.0,10.886308,0.0,0.0,16.980711,0.0,0.0,0.0,0.0,4.105736,0.0,0.0,0.0,11.729806,0.0,0.0,5.9143295,0.0,1.6138943,8.331848,16.755684,19.08113,5.1975546,0.0,37.581367,0.0,0.0,PE1PP2
0.9051341,0.0,0.0,0.0,0.0,0.0,5.3754473,11.121783,0.0,15.511024,0.0,0.0,0.0,0.0,12.103663,4.81941,3.4518685,0.0,0.14642204,0.0,0.0,1.6360157,0.0,1.8450024,0.0,0.050926257,15.450753,8.857634,0.0,15.352337,0.0,0.0,PE1PP2
10.289052,0.0,0.0,0.0,0.0,0.0,11.337446,0.0,0.0,17.517576,0.0,0.0,0.0,0.0,3.646519,0.0,0.0,0.0,12.809632,0.0,0.108013324,6.170523,0.0,1.7002728,9.147077,18.043863,19.685886,5.1785183,0.0,39.468643,0.0,0.0,PE1PP2
0.0,0.0,0.0,0.0,0.0,0.0,3.8899086,13.938279,0.0,13.577269,0.0,0.0,0.0,0.0,12.379501,4.7537127,5.676831,0.0,0.0,0.0,0.11057268,0.0,0.0,1.0434048,0.0,0.0,13.537264,9.443761,0.0,8.701982,0.0,0.0,PE1PP2
0.0,5.604689,0.0,0.96796364,3.0914946,0.0,0.0,0.0,0.97074234,3.9192767,1.5524316,0.0,0.0,0.0,0.0,0.0,1.5068824,3.4097457,8.432941,0.97231287,0.0,0.0,0.0,0.0,7.6092725,0.0,0.0,0.0,13.708,0.0,20.483015,2.0072508,PE1PP2
0.0,5.7049046,0.0,0.0,6.3300996,0.0,0.0,15.559246,1.739128,8.800726,0.0,0.062199637,0.0,0.0,10.275378,0.0,9.914734,1.2711868,4.182666,0.0,4.586492,0.0,0.0,0.0,0.0,0.0,7.685552,10.172637,2.197533,0.0,0.0,0.0,PE1PP2
0.0,0.0,0.0,0.0,0.0,0.0,3.549977,12.848235,0.0,12.386689,0.0,0.0,0.0,0.0,11.44735,4.248556,5.4156427,0.0,0.0,0.0,0.30898386,0.0,0.0,1.0231123,0.0,0.0,12.496816,8.732053,0.0,7.9132056,0.0,0.0,PE1PP2
0.0,10.307363,0.0,0.0,15.766996,0.0,1.8587556,6.6833234,1.5738627,10.30709,13.665646,0.0,0.0,0.0,16.932726,0.0,0.0,15.701941,12.498765,5.3165665,5.8130503,0.0,0.0,0.0,17.268637,0.0,5.937305,0.0,14.429241,0.0,6.2512856,5.432075,PE1PP2
8.816777,0.0,0.0,0.0,0.0,0.0,9.238553,0.0,0.0,14.116656,0.0,0.0,0.0,0.0,2.9306345,0.0,0.0,0.0,10.748721,0.0,0.45658442,5.226163,0.0,1.2401538,7.5932813,14.727687,16.310963,4.5622134,0.0,32.630142,0.0,0.0,PE1PP2
9.565882,0.0,0.0,0.0,0.0,0.0,10.680567,0.0,0.0,16.810457,0.0,0.0,0.0,0.0,3.994535,0.0,0.0,0.0,11.643833,0.0,0.0,5.7600965,0.0,1.6156968,8.253349,16.667356,18.765944,4.9669952,0.0,37.1284,0.0,0.0,PE1PP2
0.0,10.363344,0.0,0.0,15.57469,0.0,1.8096828,5.9211454,1.2996689,10.13154,13.860858,0.0,0.0,0.0,16.71463,0.0,0.0,15.855354,12.503422,5.619278,5.536348,0.0,0.0,0.0,17.772875,0.0,5.804488,0.0,14.608005,0.0,7.0213623,5.862787,PE1PP2
1.3265431,0.0,0.0,0.0,0.0,0.0,5.936273,11.797048,0.0,16.98037,0.0,0.0,0.0,0.0,13.009676,5.3164573,3.4740436,0.0,0.13643718,0.0,0.0,2.2305424,0.0,2.0464802,0.0,0.489681,16.789637,9.49912,0.0,17.120502,0.0,0.0,PE1PP2
0.0,6.4927907,0.0,0.0,8.392336,0.0,2.7085726,1.8099241,0.0,5.234307,9.158195,0.0,0.0,0.0,10.511671,0.0,0.0,11.400159,6.6884813,3.3280659,0.98338,0.0,0.0,0.0,12.174805,0.2815296,3.5340152,0.0,9.930335,0.0,6.9713573,3.9735968,PE1PP2
0.0,4.3450212,0.0,1.3721181,1.8913046,0.0,0.0,0.0,0.5127633,3.5153124,1.1410327,0.0,0.0,0.0,0.0,0.0,0.8583622,2.2559803,6.389099,0.61775285,0.0,0.0,0.0064689005,0.0,7.2743683,0.0,0.0,0.0,12.394662,0.75728387,18.821278,1.1191692,PE1PP2
0.0,4.4561577,0.0,1.3997362,1.9371911,0.0,0.0,0.0,0.42168763,3.6120045,1.1701453,0.0,0.0,0.0,0.0,0.0,0.7863782,2.365865,6.4499803,0.5861467,0.0,0.0,0.022192687,0.0,7.561617,0.0,0.0,0.0,12.72986,0.8647012,19.185709,1.2164383,PE1PP2
1.4344275,0.0,0.0,0.0,0.0,0.0,5.732621,10.434928,0.0,16.022682,0.0,0.0,0.0,0.0,11.899407,4.768712,2.7017581,0.0,0.4987891,0.0,0.0,2.286375,0.0,2.0847013,0.0,1.1315728,15.977166,8.477749,0.0,17.052416,0.0,0.0,PE1PP2
0.0,0.0,0.0,0.0,0.0,0.0,4.1398673,15.459308,0.0,14.612296,0.0,0.0,0.0,0.0,13.165992,5.495121,5.9230227,0.0,0.022417802,0.0,0.0,0.0,0.0,1.023282,0.0,0.0,14.28734,9.951021,0.0,8.65445,0.0,0.0,PE1PP2
0.0,12.066093,0.0,0.0,12.537851,0.0,0.0,20.763403,5.125584,11.777883,0.74024636,0.0,0.0,0.0,11.298508,0.0,14.102361,5.361819,13.549076,0.0,9.263768,0.0,0.0,0.0,0.0,0.0,7.594826,11.271915,8.624082,0.0,0.0,0.0,PE2PP1
11.718399,0.0,0.0,0.0,0.0,0.0,11.888003,0.0,0.0,17.807997,0.0,0.0,0.0,0.0,2.9474688,0.0,0.0,0.0,14.173963,0.0,0.76922363,6.4031043,0.0,1.4365715,10.437617,19.695604,20.0591,5.1775565,0.0,41.761032,0.0,0.0,PE2PP1
0.0,4.100015,0.0,1.5118232,2.1479073,0.0,0.0,0.0,1.0035051,3.4114175,1.0406195,0.0,0.0,0.0,0.0,0.0,1.3468184,2.0239363,6.608551,0.7045397,0.0,0.0,0.022317063,0.0,6.615646,0.0,0.0,0.20777163,12.01307,0.5269557,18.709415,0.968969,PE2PP1
0.0,8.477235,0.0,0.0,9.299722,0.0,0.0,18.168116,3.4364877,10.195373,0.0,0.0,0.0,0.0,10.793139,0.0,12.227941,3.2401607,7.864584,0.0,6.92388,0.0,0.0,0.0,0.0,0.0,7.522003,10.540243,5.50163,0.0,0.0,0.0,PE2PP1
0.0,11.403304,0.0,0.0,14.223934,0.0,1.7242163,2.5633857,0.0,8.723118,14.051041,0.0,0.0,0.0,15.533696,0.0,0.0,18.164705,11.988636,5.546746,2.8214626,0.0,0.0,0.0,18.993877,0.0,5.895418,0.0,16.287891,0.0,11.939599,7.1071086,PE2PP1
1.0109,0.0,0.0,0.0,0.0,0.0,4.954002,9.445701,0.0,13.890236,0.0,0.0,0.0,0.0,10.678559,4.171181,2.9884357,0.0,0.32803452,0.0,0.0,1.7155651,0.0,1.7815409,0.0,0.3126165,14.012758,7.890161,0.0,14.675895,0.0,0.0,PE2PP1
0.0,0.0,0.0,0.0,0.0,0.0,4.1677656,14.951174,0.0,14.35059,0.0,0.0,0.0,0.0,12.843469,5.3145514,5.6882224,0.0,0.09846339,0.0,0.0,0.0,0.0,1.1141577,0.0,0.0,14.074258,9.610607,0.0,8.882306,0.0,0.0,PE2PP1
0.0,4.5388103,0.0,1.3321449,2.8087792,0.0,0.0,0.0,1.6845384,3.9508102,1.2445186,0.0,0.0,0.0,0.0,0.0,2.03639,2.1683092,8.065568,0.96056247,0.0,0.0,0.0,0.0,6.66706,0.0,0.0,0.94623977,13.185242,0.0,20.356365,1.4496903,PE2PP1
0.0,6.1854,0.0,0.0,7.424007,0.0,2.8097322,0.9699467,0.0,4.794863,8.493763,0.0,0.0,0.0,10.07631,0.0,0.0,11.335401,6.05243,2.7696466,0.074908696,0.0,0.0,0.0,12.129438,0.37332422,3.4432333,0.0,9.699455,0.0,7.742982,3.6223874,PE2PP1
0.0,0.0,0.0,0.0,0.0,0.0,3.8026152,13.365003,0.0,13.168791,0.0,0.0,0.0,0.0,11.99476,4.5182667,5.472754,0.0,0.0,0.0,0.14747538,0.0,0.0,1.0811005,0.0,0.0,13.195835,9.116392,0.0,8.661746,0.0,0.0,PE2PP1
1.3518319,0.0,0.0,0.0,0.0,0.0,5.954935,11.802001,0.0,17.013315,0.0,0.0,0.0,0.0,13.002676,5.3333907,3.4188316,0.0,0.15607393,0.0,0.0,2.240637,0.0,2.056311,0.0,0.5347643,16.805346,9.463827,0.0,17.155294,0.0,0.0,PE2PP1
0.0,8.986953,0.0,0.0,9.725875,0.0,0.0,18.542755,3.6683397,10.448168,0.0,0.0,0.0,0.0,10.851217,0.0,12.492146,3.4871988,8.620002,0.0,7.251066,0.0,0.0,0.0,0.0,0.0,7.5366635,10.652202,5.9126115,0.0,0.0,0.0,PE2PP1
0.0,4.5743866,0.0,1.3128257,2.835706,0.0,0.0,0.0,1.6959454,3.969289,1.2464144,0.0,0.0,0.0,0.0,0.0,2.0812552,2.1916997,8.145536,0.99230796,0.0,0.0,0.0,0.0,6.660991,0.0,0.0,0.9645089,13.239348,0.0,20.403606,1.4750367,PE2PP1
0.0,11.862756,0.0,0.0,12.385968,0.0,0.0,20.758041,5.0500507,11.771006,0.6193648,0.0,0.0,0.0,11.385724,0.0,14.055681,5.1850147,13.164438,0.0,9.17885,0.0,0.0,0.0,0.0,0.0,7.668611,11.310398,8.431304,0.0,0.0,0.0,PE2PP1
1.1232045,0.0,0.0,0.0,0.0,0.0,6.0639224,13.068111,0.0,17.54698,0.0,0.0,0.0,0.0,13.5590725,5.7761865,3.6837373,0.0,0.2414966,0.0,0.0,1.6306516,0.0,1.9690638,0.0,0.06574066,17.1559,9.767929,0.0,16.582499,0.0,0.0,PE2PP1
1.2083943,0.0,0.0,0.0,0.0,0.0,5.660764,11.240058,0.0,16.15555,0.0,0.0,0.0,0.0,12.461522,5.0262856,3.4249015,0.0,0.12292738,0.0,0.0,2.0810835,0.0,1.9315408,0.0,0.35292953,16.062569,9.163271,0.0,16.378063,0.0,0.0,PE2PP1
0.0,4.3987756,0.0,1.3612225,2.7225087,0.0,0.0,0.0,1.6941917,3.9158592,1.2147069,0.0,0.0,0.0,0.0,0.0,2.0122173,2.06073,7.8990855,0.92268205,0.0,0.0,0.0,0.0,6.5795283,0.0,0.0,0.95106,13.0029545,0.0,20.16607,1.335191,PE2PP1
0.0,10.260457,0.0,0.0,15.601537,0.0,2.1258392,5.3100433,1.1074616,9.966945,14.221364,0.0,0.0,0.0,17.162361,0.0,0.0,16.458694,12.25932,5.6110077,5.2569075,0.0,0.0,0.0,18.388617,0.0,5.992674,0.0,14.6961775,0.0,7.282213,6.030957,PE2PP1
0.95311624,0.0,0.0,0.0,0.0,0.0,5.832016,12.880311,0.0,17.147085,0.0,0.0,0.0,0.0,13.445876,5.6005573,3.932677,0.0,0.10548118,0.0,0.0,1.538064,0.0,1.8715277,0.0,0.0,16.852474,9.874276,0.0,16.111849,0.0,0.0,PE2PP1
0.0,11.514429,0.0,0.0,11.997941,0.0,0.0,20.280617,4.814223,11.522945,0.43309337,0.0,0.0,0.0,11.155917,0.0,13.83841,5.0416594,12.672386,0.0,8.8501005,0.0,0.0,0.0,0.0,0.0,7.5387683,11.150096,8.135306,0.0,0.0,0.0,PE2PP1
11.421628,0.0,0.0,0.0,0.0,0.0,12.253514,0.0,0.0,18.63444,0.0,0.0,0.0,0.0,3.917747,0.0,0.0,0.0,13.548913,0.0,0.111129664,6.585322,0.0,1.5644549,10.004431,19.337803,20.857025,5.6256695,0.0,42.24855,0.0,0.0,PE2PP1
0.0,4.13947,0.0,1.3667514,2.1712217,0.0,0.0,0.0,0.9623349,3.3350322,1.0716571,0.0,0.0,0.0,0.0,0.0,1.4283983,2.1011817,6.60626,0.7551255,0.0,0.0,0.0,0.0,6.4064403,0.0,0.0,0.18858624,11.640258,0.28286755,18.105436,1.0523993,PE2PP1
0.2234624,0.0,0.0,0.0,0.0,0.0,4.7824035,11.8628,0.0,14.488553,0.0,0.0,0.0,0.0,11.667649,4.8820376,4.004752,0.0,0.2932925,0.0,0.0,0.26347423,0.0,1.671205,0.0,0.0,14.288964,8.664027,0.0,12.816467,0.0,0.0,PE2PP1
12.359106,0.0,0.0,0.0,0.0,0.0,13.216009,0.0,0.0,20.140999,0.0,0.0,0.0,0.0,4.0782595,0.0,0.0,0.0,14.66851,0.0,0.15535635,6.9061327,0.0,1.677617,10.845904,21.051506,22.327192,5.8436027,0.0,45.55644,0.0,0.0,PE2PP1
0.0,10.613571,0.0,0.0,13.137239,0.0,1.7835196,2.5078745,0.0,8.116992,13.107465,0.0,0.0,0.0,14.44922,0.0,0.0,16.81226,11.112062,5.2065825,2.5478592,0.0,0.0,0.0,17.624205,0.0,5.4096136,0.0,15.167668,0.0,11.11233,6.56159,PE2PP1
0.0,4.059198,0.0,1.5094723,2.1456316,0.0,0.0,0.0,1.0514957,3.4285028,1.0500767,0.0,0.0,0.0,0.0,0.0,1.3663458,1.9662529,6.619659,0.7040179,0.0,0.0,0.017897807,0.0,6.5858383,0.0,0.0,0.23585781,11.998677,0.50726265,18.698675,0.94821143,PE2PP1
0.0,4.6824913,0.0,1.116663,2.860329,0.0,0.0,0.0,1.5779995,3.8231485,1.2921199,0.0,0.0,0.0,0.0,0.0,2.0616016,2.4096944,8.070813,0.9936529,0.0,0.0,0.0,0.0,6.5368733,0.0,0.0,0.79870915,12.789516,0.0,19.720926,1.5418332,PE2PP1
0.0,0.0,0.0,0.0,0.0,0.0,3.3843265,13.162726,0.0,12.282273,0.0,0.0,0.0,0.0,11.5016365,4.2926598,5.568674,0.0,0.0,0.0,0.59733033,0.0,0.0,0.8253989,0.0,0.0,12.331965,8.891642,0.0,7.1989193,0.0,0.0,PE2PP1
11.884328,0.0,0.0,0.0,0.0,0.0,12.334339,0.0,0.0,18.632364,0.0,0.0,0.0,0.0,3.3503451,0.0,0.0,0.0,14.311934,0.0,0.52881473,6.5682087,0.0,1.538786,10.539759,20.12706,20.827967,5.3913827,0.0,43.010868,0.0,0.0,PE2PP1
0.0,4.4415655,0.0,0.0,5.142321,0.0,3.2484348,0.39642295,0.0,3.532154,6.55794,0.0,0.0,0.0,8.41458,0.0,0.0,9.249849,4.207564,1.7779545,0.0,0.0,0.0,0.0,9.966646,0.76947963,2.7721305,0.0,7.4029694,0.0,6.379738,2.408523,PE2PP1
0.0,9.379582,0.0,0.0,9.953575,0.0,0.0,18.277435,3.8263767,10.402623,0.0,0.0,0.0,0.0,10.525718,0.0,12.577608,3.8520834,9.360811,0.0,7.399289,0.0,0.0,0.0,0.0,0.0,7.341736,10.614813,6.2740817,0.0,0.0,0.0,PE2PP1
0.0,10.832527,0.0,0.0,13.517039,0.0,1.8183697,2.522024,0.0,8.32114,13.45152,0.0,0.0,0.0,14.885549,0.0,0.0,17.287348,11.378754,5.303792,2.6476765,0.0,0.0,0.0,18.124252,0.0,5.5954685,0.0,15.505418,0.0,11.303128,6.7235336,PE2PP1
1.1187122,0.0,0.0,0.0,0.0,0.0,5.4744463,10.372925,0.0,15.390611,0.0,0.0,0.0,0.0,11.804398,4.585345,3.2148056,0.0,0.19440342,0.0,0.0,2.0994987,0.0,2.0084863,0.0,0.52209306,15.4224205,8.621729,0.0,16.102734,0.0,0.0,PE2PP1
0.0,10.809033,0.0,0.0,13.467801,0.0,1.8788856,2.407861,0.0,8.281887,13.464228,0.0,0.0,0.0,14.903811,0.0,0.0,17.386044,11.29662,5.2455463,2.539107,0.0,0.0,0.0,18.18193,0.0,5.6194835,0.0,15.543584,0.0,11.407504,6.710255,PE2PP1
0.0,4.540303,0.0,1.3557914,2.0190053,0.0,0.0,0.0,0.482042,3.5917351,1.1540537,0.0,0.0,0.0,0.0,0.0,0.9003678,2.433491,6.6025248,0.642799,0.0,0.0,0.03577387,0.0,7.4171286,0.0,0.0,0.0,12.662277,0.701326,19.11935,1.2721457,PE2PP1
0.0,10.333806,0.0,0.0,12.483234,0.0,2.083676,1.7267473,0.0,7.829682,12.7538395,0.0,0.0,0.0,14.332606,0.0,0.0,16.894411,10.488401,4.751823,1.655726,0.0,0.0,0.0,17.776403,0.0,5.3532095,0.0,15.126595,0.0,11.626565,6.383452,PE2PP1
0.0,5.451376,0.0,0.0,6.2528324,0.0,2.9734845,0.47929728,0.0,4.187377,7.5639725,0.0,0.0,0.0,9.282677,0.0,0.0,10.536543,5.16663,2.199467,0.0,0.0,0.0,0.0,11.312593,0.49829847,3.1689072,0.0,8.751873,0.0,7.531879,3.0278156,PP
0.0,11.011187,0.0,0.0,13.865487,0.0,1.8151115,2.6607878,0.0,8.513477,13.740859,0.0,0.0,0.0,15.215548,0.0,0.0,17.568672,11.602818,5.4149113,2.840102,0.0,0.0,0.0,18.444038,0.0,5.7174463,0.0,15.70058,0.0,11.330372,6.827892,PP
10.6740675,0.0,0.0,0.0,0.0,0.0,12.35313,0.0,0.0,19.536312,0.0,0.0,0.0,0.0,5.2244916,0.0,0.0,0.0,12.397563,0.0,0.0,6.7229195,0.0,1.7372087,9.023699,18.513456,21.634003,6.1228685,0.0,41.904778,0.0,0.0,PP
0.0,9.007888,0.0,0.0,9.725498,0.0,0.0,18.235405,3.7043526,10.324567,0.0,0.0,0.0,0.0,10.661771,0.0,12.385829,3.5808792,8.800202,0.0,7.2724547,0.0,0.0,0.0,0.0,0.0,7.4091268,10.527553,5.9887943,0.0,0.0,0.0,PP
8.09938,0.0,0.0,0.0,0.0,0.0,9.289256,0.0,0.0,14.709277,0.0,0.0,0.0,0.0,3.1608677,0.0,0.0,0.0,10.810861,0.0,0.15931827,5.0724854,0.0,1.7378772,7.2317877,14.724546,16.833874,4.50139,0.0,33.01883,0.0,0.0,PP
0.0,10.127214,0.0,0.0,15.617596,0.0,2.128915,5.7575936,1.2875234,10.0672455,14.063281,0.0,0.0,0.0,17.018198,0.0,0.0,16.098806,12.187546,5.4881043,5.4690933,0.0,0.0,0.0,17.983942,0.0,5.885843,0.0,14.464744,0.0,6.803008,5.8115625,PP
0.0,5.6220336,0.0,0.9764418,3.1010349,0.0,0.0,0.0,0.98756915,3.9123192,1.5322605,0.0,0.0,0.0,0.0,0.0,1.5192124,3.4112415,8.4546585,0.9688749,0.0,0.0,0.0,0.0,7.5969586,0.0,0.0,0.0,13.754996,0.0,20.559788,2.002262,PP
1.2101369,0.0,0.0,0.0,0.0,0.0,5.83266,11.954966,0.0,16.851027,0.0,0.0,0.0,0.0,13.021764,5.3351235,3.6215866,0.0,0.10132876,0.0,0.0,2.0381796,0.0,1.9751439,0.0,0.24786468,16.656271,9.5743,0.0,16.707644,0.0,0.0,PP
0.0,5.8170505,0.0,0.95246136,3.2626252,0.0,0.0,0.0,1.0428046,4.0587797,1.6221234,0.0,0.0,0.0,0.0,0.0,1.5663143,3.5434945,8.772831,1.024843,0.0,0.0,0.0,0.0,7.816417,0.0,0.0,0.0,14.13553,0.0,21.0081,2.1530688,PP
9.484852,0.0,0.0,0.0,0.0,0.0,10.223653,0.0,0.0,15.779071,0.0,0.0,0.0,0.0,3.4942505,0.0,0.0,0.0,11.482595,0.0,0.15035892,5.636257,0.0,1.4166903,8.222758,16.131605,17.89864,4.882669,0.0,35.752316,0.0,0.0,PP
0.0,11.30413,0.0,0.0,14.118493,0.0,1.6821817,2.725906,0.0,8.679062,13.902099,0.0,0.0,0.0,15.349532,0.0,0.0,17.834583,11.933709,5.566986,2.9173896,0.0,0.0,0.0,18.698473,0.0,5.7871304,0.0,16.057339,0.0,11.6565485,7.0288877,PP
10.947415,0.0,0.0,0.0,0.0,0.0,12.51044,0.0,0.0,19.615046,0.0,0.0,0.0,0.0,5.076278,0.0,0.0,0.0,12.717526,0.0,0.0,6.7694917,0.0,1.6975876,9.299446,18.869839,21.746912,6.1226583,0.0,42.47007,0.0,0.0,PP
9.109951,0.0,0.0,0.0,0.0,0.0,10.785632,0.0,0.0,17.165262,0.0,0.0,0.0,0.0,4.8520713,0.0,0.0,0.0,10.796012,0.0,0.0,5.83923,0.0,1.64149,7.644441,15.948355,19.15291,5.3781047,0.0,36.76417,0.0,0.0,PP
0.0,10.302315,0.0,0.0,12.649883,0.0,1.631277,2.716158,0.0,7.881654,12.573113,0.0,0.0,0.0,13.752526,0.0,0.0,15.865151,10.84762,5.151164,2.6296816,0.0,0.0,0.0,16.707685,0.0,5.0836935,0.0,14.531046,0.0,10.566795,6.3057923,PP
0.0,10.619557,0.0,0.0,15.608201,0.0,1.974641,4.8254814,0.87535405,9.874215,14.434169,0.0,0.0,0.0,17.17577,0.0,0.0,16.910355,12.454921,5.821823,5.011916,0.0,0.0,0.0,18.84192,0.0,6.081988,0.0,15.117127,0.0,8.128205,6.367643,PP
0.0,4.5493655,0.0,1.3430396,2.7875843,0.0,0.0,0.0,1.6490769,3.9409761,1.2275026,0.0,0.0,0.0,0.0,0.0,2.0163052,2.1748347,8.045752,0.9676959,0.0,0.0,0.0,0.0,6.688906,0.0,0.0,0.9050901,13.205293,0.0,20.356075,1.4351858,PP
0.0,8.510908,0.0,0.0,9.242057,0.0,0.0,17.751083,3.4886785,9.993469,0.0,0.0,0.0,0.0,10.495808,0.0,12.062214,3.3310578,8.031958,0.0,6.8885193,0.0,0.0,0.0,0.0,0.0,7.3270783,10.336292,5.558255,0.0,0.0,0.0,PP
0.0,4.165388,0.0,1.4773637,1.9034879,0.0,0.0,0.0,0.6733299,3.4894109,1.1017871,0.0,0.0,0.0,0.0,0.0,0.8844842,2.0796795,6.2905693,0.5733039,0.0,0.0,0.016119588,0.0,7.2043233,0.0,0.0,0.0,12.342466,0.85263807,18.928158,0.9636483,PP
8.578965,0.0,0.0,0.0,0.0,0.0,9.755393,0.0,0.0,15.255246,0.0,0.0,0.0,0.0,3.3704963,0.0,0.0,0.0,11.076481,0.0,0.07707151,5.381447,0.0,1.673164,7.5754375,15.2769165,17.425465,4.7593074,0.0,34.215923,0.0,0.0,PP
0.0,9.184478,0.0,0.0,9.830734,0.0,0.0,18.162327,3.7916706,10.313282,0.0,0.0,0.0,0.0,10.536098,0.0,12.406926,3.716768,9.126039,0.0,7.3555055,0.0,0.0,0.0,0.0,0.0,7.3275127,10.489931,6.149499,0.0,0.0,0.0,PP
0.0,4.0004725,0.0,1.4321308,2.158605,0.0,0.0,0.0,1.07537,3.3769648,1.0639055,0.0,0.0,0.0,0.0,0.0,1.4441378,1.9815934,6.5663986,0.70137465,0.0,0.0,0.016723488,0.0,6.325271,0.0,0.0,0.37557995,11.6891365,0.38170725,18.337496,0.948692,PP
0.0,5.880517,0.0,0.0,6.985651,0.0,2.953444,0.74725807,0.0,4.5546,8.156351,0.0,0.0,0.0,9.890133,0.0,0.0,11.109876,5.678393,2.5343392,0.0,0.0,0.0,0.0,11.907222,0.4846192,3.3749354,0.0,9.338078,0.0,7.622328,3.4030435,PP
0.0,4.759475,0.0,1.2268152,2.92485,0.0,0.0,0.0,1.565584,3.9042745,1.2196356,0.0,0.0,0.0,0.0,0.0,2.083488,2.45516,8.195971,1.0136437,0.0,0.0,0.0015658941,0.0,6.6188946,0.0,0.0,0.8849312,13.104615,0.0,20.130123,1.5826703,PP
0.8762972,0.0,0.0,0.0,0.0,0.0,5.51065,11.849563,0.0,16.087637,0.0,0.0,0.0,0.0,12.650267,5.115795,3.7074597,0.0,0.08507085,0.0,0.0,1.5551785,0.0,1.8118863,0.0,0.0,15.949974,9.307311,0.0,15.491491,0.0,0.0,PP
0.0,6.1772146,0.0,0.0,6.706436,0.0,0.0,15.268107,2.078219,8.461656,0.0,0.0,0.0,0.0,9.743283,0.0,10.168857,1.8424062,4.6505766,0.0,4.695864,0.0,0.0,0.0,0.0,0.0,7.2556453,9.936421,2.7061744,0.0,0.0,0.0,PP
1.1860158,0.0,0.0,0.0,0.0,0.0,5.569431,11.049746,0.0,15.913744,0.0,0.0,0.0,0.0,12.291715,4.9332595,3.3593493,0.0,0.116557315,0.0,0.0,2.0507247,0.0,1.9033997,0.0,0.34814608,15.839883,9.034654,0.0,16.161415,0.0,0.0,PP
0.0,10.643052,0.0,0.0,15.443153,0.0,1.9225426,4.591414,0.7597428,9.740527,14.364033,0.0,0.0,0.0,17.01684,0.0,0.0,16.902523,12.4108925,5.8407807,4.8568544,0.0,0.0,0.0,18.816795,0.0,6.050856,0.0,15.125405,0.0,8.3694105,6.4303064,PP
0.0,5.7929773,0.0,0.92979443,3.2465234,0.0,0.0,0.0,0.9625064,4.0475254,1.6764411,0.0,0.0,0.0,0.0,0.0,1.5156409,3.6061957,8.712883,1.0202452,0.0,0.0,0.0,0.0,7.8647027,0.0,0.0,0.0,14.08871,0.0,20.903536,2.1829057,PP
10.721695,0.0,0.0,0.0,0.0,0.0,12.019159,0.0,0.0,18.727024,0.0,0.0,0.0,0.0,4.4956675,0.0,0.0,0.0,12.78715,0.0,0.0,6.4549317,0.0,1.7633786,9.284146,18.508602,20.860096,5.6664963,0.0,41.28081,0.0,0.0,PP
4.8311324,0.0,0.0,0.0,0.0,0.0,6.440041,0.3882115,0.0,11.395682,0.0,0.0,0.0,0.0,3.7707763,0.0,0.46807617,0.0,6.6509814,0.0,0.0,3.475371,0.0,1.7296891,4.1174417,8.824126,12.919185,4.278049,0.0,23.452019,0.0,0.0,PP
0.0,11.464502,0.0,0.0,11.984348,0.0,0.0,20.258665,4.836023,11.481643,0.48044938,0.0,0.0,0.0,11.170241,0.0,13.7527275,5.0110025,12.62771,0.0,8.860084,0.0,0.0,0.0,0.0,0.0,7.5345354,11.084756,8.114155,0.0,0.0,0.0,PP
0.0,10.012161,0.0,0.0,15.300689,0.0,2.1955204,5.280731,1.0933352,9.772284,14.005582,0.0,0.0,0.0,16.866463,0.0,0.0,16.143778,11.916227,5.459705,5.1519876,0.0,0.0,0.0,18.009619,0.0,5.854742,0.0,14.366264,0.0,7.067507,5.8596244,PP
0.0,4.2348022,0.0,1.2997401,2.5835044,0.0,0.0,0.0,1.5642432,3.72802,1.2080804,0.0,0.0,0.0,0.0,0.0,1.946248,2.0134792,7.540211,0.88126034,0.0,0.0,0.0,0.0,6.348274,0.0,0.0,0.8715376,12.403448,0.0,19.343771,1.2842834,PP
0.6073845,0.0,0.0,0.0,0.0,0.0,5.5569906,13.249427,0.0,16.669128,0.0,0.0,0.0,0.0,13.265467,5.627354,4.1774354,0.0,0.15197833,0.0,0.0,0.8770541,0.0,1.7735713,0.0,0.0,16.319448,9.775492,0.0,14.866911,0.0,0.0,PP
0.0,11.715184,0.0,0.0,12.220151,0.0,0.0,20.370365,4.9839873,11.529633,0.66146475,0.0,0.0,0.0,11.166577,0.0,13.811057,5.191685,13.070455,0.0,9.027668,0.0,0.0,0.0,0.0,0.0,7.508038,11.054538,8.345124,0.0,0.0,0.0,PP
0.8923734,0.0,0.0,0.0,0.0,0.0,5.6911044,12.812147,0.0,16.756542,0.0,0.0,0.0,0.0,13.101195,5.586434,3.838288,0.0,0.21739009,0.0,0.0,1.2646353,0.0,1.868027,0.0,0.0,16.397514,9.57535,0.0,15.51883,0.0,0.0,PP
